    x (m) Pressao (kPa)
         0 26070.3089
161.2903226 30127.79319
322.5806452 33533.98225
483.8709677 36330.81682
645.1612903 38575.79084
806.4516129 40336.5287
967.7419355 41685.30244
1129.032258 42694.07763
1290.322581 43430.51605
1451.612903 43955.16122
1612.903226 44319.83615
1774.193548 44567.12419
1935.483871 44730.70193
2096.774194 44836.25136
2258.064516 44902.68727
2419.354839 44943.4804
2580.645161 44967.91724
2741.935484 44982.20052
2903.225806 44990.34752
3064.516129 44994.88305
3225.806452 44997.34798
3387.096774 44998.65599
3548.387097 44999.33388
3709.677419 44999.67706
3870.967742 44999.84683
4032.258065 44999.92891
4193.548387 44999.96771
4354.83871 44999.98563
4516.129032 44999.99374
4677.419355 44999.9973
4838.709677 44999.99881
      5000 44999.99935
