    x (m)  Saturacao
         0          1
9.784735812 0.9875391757
19.56947162 0.9803326574
29.35420744 0.9739547164
39.13894325 0.9680729164
48.92367906 0.9625594423
58.70841487 0.9573456352
68.49315068 0.9523875939
78.2778865 0.9476541222
88.06262231 0.9431214735
97.84735812 0.9387707038
107.6320939 0.9345861893
117.4168297 0.9305547274
127.2015656 0.9266649555
136.9863014 0.9229069553
146.7710372 0.9192719716
156.555773 0.9157522062
166.3405088 0.9123406608
176.1252446 0.9090310157
185.9099804 0.9058175337
195.6947162 0.9026949821
205.4794521 0.8996585691
215.2641879 0.8967038911
225.0489237 0.8938268884
234.8336595 0.8910238075
244.6183953 0.8882911687
254.4031311 0.8856257393
264.1878669 0.8830245084
273.9726027 0.8804846668
283.7573386 0.8780035883
293.5420744 0.8755788137
303.3268102 0.873208036
313.111546 0.870889088
322.8962818 0.8686199308
332.6810176 0.8663986435
342.4657534 0.8642234143
352.2504892 0.8620925319
362.035225 0.860004378
371.8199609 0.8579574211
381.6046967 0.8559502095
391.3894325 0.8539813664
401.1741683 0.8520495845
410.9589041 0.8501536215
420.7436399 0.8482922954
430.5283757 0.8464644811
440.3131115 0.8446691065
450.0978474 0.8429051494
459.8825832 0.8411716342
469.667319 0.8394676292
479.4520548 0.837792244
489.2367906 0.8361446271
499.0215264 0.8345239635
508.8062622 0.832929473
518.590998 0.8313604078
528.3757339 0.8298160509
538.1604697 0.8282957148
547.9452055 0.8267987391
557.7299413 0.8253244899
567.5146771 0.8238723578
577.2994129 0.8224417573
587.0841487 0.8210321247
596.8688845 0.8196429179
606.6536204 0.8182736147
616.4383562 0.8169237122
626.223092 0.8155927257
636.0078278 0.8142801878
645.7925636 0.8129856478
655.5772994 0.8117086705
665.3620352 0.8104488361
675.146771 0.809205739
684.9315068 0.8079789873
694.7162427 0.8067682022
704.5009785 0.8055730176
714.2857143 0.8043930793
724.0704501 0.8032280445
733.8551859 0.8020775815
743.6399217 0.8009413691
753.4246575 0.7998190962
763.2093933 0.7987104614
772.9941292 0.7976151724
782.778865 0.7965329461
792.5636008 0.7954635077
802.3483366 0.7944065908
812.1330724 0.7933619368
821.9178082 0.7923292946
831.702544 0.7913084205
841.4872798 0.7902990778
851.2720157 0.7893010365
861.0567515 0.7883140732
870.8414873 0.7873379706
880.6262231 0.7863725176
890.4109589 0.7854175087
900.1956947 0.7844727442
909.9804305 0.7835380297
919.7651663 0.7826131759
929.5499022 0.7816979987
939.334638 0.7807923188
949.1193738 0.7798959615
958.9041096 0.7790087567
968.6888454 0.7781305385
978.4735812 0.7772611455
988.258317 0.7764004201
998.0430528 0.7755482088
1007.827789 0.7747043618
1017.612524 0.7738687332
1027.39726 0.7730411803
1037.181996 0.7722215642
1046.966732 0.7714097491
1056.751468 0.7706056025
1066.536204 0.7698089952
1076.320939 0.7690198007
1086.105675 0.7682378957
1095.890411 0.7674631597
1105.675147 0.7666954748
1115.459883 0.7659347261
1125.244618 0.7651808009
1135.029354 0.7644335892
1144.81409 0.7636929836
1154.598826 0.7629588787
1164.383562 0.7622311718
1174.168297 0.7615097622
1183.953033 0.7607945513
1193.737769 0.7600854428
1203.522505 0.7593823423
1213.307241 0.7586851574
1223.091977 0.7579937976
1232.876712 0.7573081745
1242.661448 0.7566282012
1252.446184 0.7559537927
1262.23092 0.7552848658
1272.015656 0.7546213388
1281.800391 0.7539631318
1291.585127 0.7533101663
1301.369863 0.7526623655
1311.154599 0.752019654
1320.939335 0.7513819578
1330.72407 0.7507492045
1340.508806 0.7501213229
1350.293542 0.7494982433
1360.078278 0.748879897
1369.863014 0.7482662168
1379.64775 0.7476571369
1389.432485 0.7470525922
1399.217221 0.7464525193
1409.001957 0.7458568557
1418.786693 0.7452655398
1428.571429 0.7446785114
1438.356164 0.7440957113
 1448.1409 0.7435170812
1457.925636 0.7429425638
1467.710372 0.7423721028
1477.495108 0.741805643
1487.279843 0.7412431298
1497.064579 0.7406845098
1506.849315 0.7401297303
1516.634051 0.7395787394
1526.418787 0.7390314863
1536.203523 0.7384879206
1545.988258 0.7379479929
1555.772994 0.7374116547
1565.55773 0.736878858
1575.342466 0.7363495556
1585.127202 0.7358237009
1594.911937 0.7353012483
1604.696673 0.7347821524
1614.481409 0.7342663689
1624.266145 0.7337538537
1634.050881 0.7332445636
1643.835616 0.732738456
1653.620352 0.7322354886
1663.405088 0.7317356198
1673.189824 0.7312388087
1682.97456 0.7307450148
1692.759295 0.7302541979
1702.544031 0.7297663185
1712.328767 0.7292813377
1722.113503 0.7287992167
1731.898239 0.7283199174
1741.682975 0.7278434021
1751.46771 0.7273696334
1761.252446 0.7268985745
1771.037182 0.7264301886
1780.821918 0.7259644396
1790.606654 0.7255012917
1800.391389 0.7250407094
1810.176125 0.7245826573
1819.960861 0.7241271007
1829.745597 0.7236740049
1839.530333 0.7232233356
1849.315068 0.7227750586
1859.099804 0.7223291402
1868.88454 0.7218855467
1878.669276 0.7214442446
1888.454012 0.7210052008
1898.238748 0.7205683823
1908.023483 0.7201337561
1917.808219 0.7197012894
1927.592955 0.7192709498
1937.377691 0.7188427046
1947.162427 0.7184165215
1956.947162 0.7179923681
1966.731898 0.7175702121
1976.516634 0.7171500213
1986.30137 0.7167317635
1996.086106 0.7163154063
2005.870841 0.7159009177
2015.655577 0.7154882651
2025.440313 0.7150774164
2035.225049 0.7146683389
2045.009785 0.7142610002
2054.794521 0.7138553674
2064.579256 0.7134514078
2074.363992 0.7130490882
2084.148728 0.7126483753
2093.933464 0.7122492356
 2103.7182 0.7118516353
2113.502935 0.7114555401
2123.287671 0.7110609157
2133.072407 0.7106677271
2142.857143 0.710275939
2152.641879 0.7098855158
2162.426614 0.7094964212
2172.21135 0.7091086183
2181.996086 0.7087220699
2191.780822 0.7083367379
2201.565558 0.7079525836
2211.350294 0.7075695677
2221.135029 0.7071876497
2230.919765 0.7068067888
2240.704501 0.7064269428
2250.489237 0.7060480688
2260.273973 0.7056701226
2270.058708 0.7052930591
2279.843444 0.7049168318
2289.62818 0.7045413929
2299.412916 0.7041666932
2309.197652 0.7037926821
2318.982387 0.703419307
2328.767123 0.7030465141
2338.551859 0.7026742472
2348.336595 0.7023024484
2358.121331 0.7019310576
2367.906067 0.7015600121
2377.690802 0.7011892471
2387.475538 0.7008186949
2397.260274 0.7004482849
2407.04501 0.7000779434
2416.829746 0.6997075934
2426.614481 0.6993371543
2436.399217 0.6989665415
2446.183953 0.6985956664
2455.968689 0.6982244356
2465.753425 0.697852751
2475.53816 0.6974805091
2485.322896 0.6971076007
2495.107632 0.6967339104
2504.892368 0.6963593159
2514.677104 0.6959836878
2524.46184 0.6956068883
2534.246575 0.6952287714
2544.031311 0.6948491813
2553.816047 0.6944679517
2563.600783 0.6940849054
2573.385519 0.6936998523
2583.170254 0.693312589
2592.95499 0.692922897
2602.739726 0.6925305413
2612.524462 0.6921352687
2622.309198 0.691736806
2632.093933 0.6913348577
2641.878669 0.6909291036
2651.663405 0.6905191962
2661.448141 0.6901047574
2671.232877 0.689685375
2681.017613 0.6892605986
2690.802348 0.688829935
2700.587084 0.6883928427
2710.37182 0.6879487258
2720.156556 0.6874969269
2729.941292 0.6870367187
2739.726027 0.6865672941
2749.510763 0.6860877549
2759.295499 0.6855970984
2769.080235 0.6850942017
2778.864971 0.6845778022
2788.649706 0.6840464757
2798.434442 0.6834986092
2808.219178 0.6829323676
2818.003914 0.6823456547
2827.78865 0.6817360637
2837.573386 0.6811008173
2847.358121 0.6804366949
2857.142857 0.6797399323
2866.927593 0.6790061173
2876.712329 0.6782300198
2886.497065 0.6774054031
 2896.2818 0.6765248166
2906.066536 0.6755790993
2915.851272 0.6745572188
2925.636008 0.6734453739
2935.420744 0.6722259196
2945.205479 0.6708778137
2954.990215 0.6693707606
2964.774951 0.6676686136
2974.559687 0.6657229604
2984.344423 0.6634511217
2994.129159 0.6607822958
3003.913894 0.657528506
3013.69863 0.6534645547
3023.483366 0.6483683386
3033.268102 0.6410090326
3043.052838 0.6311018698
3052.837573 0.6142211486
3062.622309 0.5724026493
3072.407045 0.4960739824
3082.191781 0.3986138109
3091.976517 0.304908625
3101.761252 0.2418274879
3111.545988 0.2134227572
3121.330724 0.203880292
3131.11546 0.2010820769
3140.900196 0.2002985601
3150.684932 0.2000821313
3160.469667 0.200022575
3170.254403 0.2000062037
3180.039139 0.2000017047
3189.823875 0.2000004684
3199.608611 0.2000001287
3209.393346 0.2000000354
3219.178082 0.2000000097
3228.962818 0.2000000027
3238.747554 0.2000000007
3248.53229 0.2000000002
3258.317025 0.2000000001
3268.101761        0.2
3277.886497        0.2
3287.671233        0.2
3297.455969        0.2
3307.240705        0.2
3317.02544        0.2
3326.810176        0.2
3336.594912        0.2
3346.379648        0.2
3356.164384        0.2
3365.949119        0.2
3375.733855        0.2
3385.518591        0.2
3395.303327        0.2
3405.088063        0.2
3414.872798        0.2
3424.657534        0.2
3434.44227        0.2
3444.227006        0.2
3454.011742        0.2
3463.796477        0.2
3473.581213        0.2
3483.365949        0.2
3493.150685        0.2
3502.935421        0.2
3512.720157        0.2
3522.504892        0.2
3532.289628        0.2
3542.074364        0.2
 3551.8591        0.2
3561.643836        0.2
3571.428571        0.2
3581.213307        0.2
3590.998043        0.2
3600.782779        0.2
3610.567515        0.2
3620.35225        0.2
3630.136986        0.2
3639.921722        0.2
3649.706458        0.2
3659.491194        0.2
3669.27593        0.2
3679.060665        0.2
3688.845401        0.2
3698.630137        0.2
3708.414873        0.2
3718.199609        0.2
3727.984344        0.2
3737.76908        0.2
3747.553816        0.2
3757.338552        0.2
3767.123288        0.2
3776.908023        0.2
3786.692759        0.2
3796.477495        0.2
3806.262231        0.2
3816.046967        0.2
3825.831703        0.2
3835.616438        0.2
3845.401174        0.2
3855.18591        0.2
3864.970646        0.2
3874.755382        0.2
3884.540117        0.2
3894.324853        0.2
3904.109589        0.2
3913.894325        0.2
3923.679061        0.2
3933.463796        0.2
3943.248532        0.2
3953.033268        0.2
3962.818004        0.2
3972.60274        0.2
3982.387476        0.2
3992.172211        0.2
4001.956947        0.2
4011.741683        0.2
4021.526419        0.2
4031.311155        0.2
4041.09589        0.2
4050.880626        0.2
4060.665362        0.2
4070.450098        0.2
4080.234834        0.2
4090.019569        0.2
4099.804305        0.2
4109.589041        0.2
4119.373777        0.2
4129.158513        0.2
4138.943249        0.2
4148.727984        0.2
4158.51272        0.2
4168.297456        0.2
4178.082192        0.2
4187.866928        0.2
4197.651663        0.2
4207.436399        0.2
4217.221135        0.2
4227.005871        0.2
4236.790607        0.2
4246.575342        0.2
4256.360078        0.2
4266.144814        0.2
4275.92955        0.2
4285.714286        0.2
4295.499022        0.2
4305.283757        0.2
4315.068493        0.2
4324.853229        0.2
4334.637965        0.2
4344.422701        0.2
4354.207436        0.2
4363.992172        0.2
4373.776908        0.2
4383.561644        0.2
4393.34638        0.2
4403.131115        0.2
4412.915851        0.2
4422.700587        0.2
4432.485323        0.2
4442.270059        0.2
4452.054795        0.2
4461.83953        0.2
4471.624266        0.2
4481.409002        0.2
4491.193738        0.2
4500.978474        0.2
4510.763209        0.2
4520.547945        0.2
4530.332681        0.2
4540.117417        0.2
4549.902153        0.2
4559.686888        0.2
4569.471624        0.2
4579.25636        0.2
4589.041096        0.2
4598.825832        0.2
4608.610568        0.2
4618.395303        0.2
4628.180039        0.2
4637.964775        0.2
4647.749511        0.2
4657.534247        0.2
4667.318982        0.2
4677.103718        0.2
4686.888454        0.2
4696.67319        0.2
4706.457926        0.2
4716.242661        0.2
4726.027397        0.2
4735.812133        0.2
4745.596869        0.2
4755.381605        0.2
4765.166341        0.2
4774.951076        0.2
4784.735812        0.2
4794.520548        0.2
4804.305284        0.2
4814.09002        0.2
4823.874755        0.2
4833.659491        0.2
4843.444227        0.2
4853.228963        0.2
4863.013699        0.2
4872.798434        0.2
4882.58317        0.2
4892.367906        0.2
4902.152642        0.2
4911.937378        0.2
4921.722114        0.2
4931.506849        0.2
4941.291585        0.2
4951.076321        0.2
4960.861057        0.2
4970.645793        0.2
4980.430528        0.2
4990.215264        0.2
      5000        0.2
