    x (m)  Saturacao
         0          1
161.2903226 0.8903724696
322.5806452 0.8486479197
483.8709677 0.819504079
645.1612903 0.7969281905
806.4516129 0.7785188336
967.7419355 0.7629533905
1129.032258 0.7493716523
1290.322581 0.7372788261
1451.612903 0.7262499585
1612.903226 0.7159222265
1774.193548 0.7061365807
1935.483871 0.6964611612
2096.774194 0.6866139124
2258.064516 0.6764904658
2419.354839 0.6645160567
2580.645161 0.6507356773
2741.935484 0.6324635337
2903.225806 0.5923853768
3064.516129 0.5184372052
3225.806452 0.4214456538
3387.096774 0.3234502665
3548.387097 0.2520173409
3709.677419 0.2172491611
3870.967742 0.2050407495
4032.258065 0.2014070665
4193.548387 0.2003873846
4354.83871 0.2001062378
4516.129032 0.2000291035
4677.419355 0.2000079703
4838.709677 0.2000021826
      5000 0.2000005976
