    x (m)  Saturacao
         0          1
39.37007874 0.9410921691
78.74015748 0.9126072115
118.1102362 0.890141927
157.480315 0.8712989739
196.8503937 0.8550116138
236.2204724 0.8406619538
275.5905512 0.8278451811
314.9606299 0.8162763908
354.3307087 0.8057453517
393.7007874 0.7960915667
433.0708661 0.7871892908
472.4409449 0.7789379569
511.8110236 0.771255765
551.1811024 0.7640752304
590.5511811 0.7573400003
629.9212598 0.7510025192
669.2913386 0.7450222835
708.6614173 0.7393645115
748.0314961 0.7339991147
787.4015748 0.7288998918
826.7716535 0.7240438889
866.1417323 0.7194108861
905.511811 0.7149829822
944.8818898 0.7107442547
984.2519685 0.7066804799
1023.622047 0.7027789011
1062.992126 0.6990280342
1102.362205 0.6954175042
1141.732283 0.6919379077
1181.102362 0.6885806949
1220.472441 0.6853380692
1259.84252 0.682202901
1299.212598 0.6791686532
1338.582677 0.6762293163
1377.952756 0.6733793523
1417.322835 0.6706136454
1456.692913 0.6679274589
1496.062992 0.6653163971
1535.433071 0.6627763717
1574.80315 0.6603035717
1614.173228 0.6578944372
1653.543307 0.6555456353
1692.913386 0.6532540388
1732.283465 0.6510167071
1771.653543 0.6488308687
1811.023622 0.6466939054
1850.393701 0.6446033379
1889.76378 0.6425568127
1929.133858 0.6405520896
1968.503937 0.6385870306
2007.874016 0.6366595891
2047.244094 0.6347678004
2086.614173 0.6329097715
2125.984252 0.6310836728
2165.354331 0.6292877288
2204.724409 0.6275202098
2244.094488 0.6257794232
2283.464567 0.6240637053
2322.834646 0.6223714122
2362.204724 0.6207009113
2401.574803 0.6190505716
2440.944882 0.6174187543
2480.314961 0.6158038018
2519.685039 0.6142040263
2559.055118 0.6126176974
2598.425197 0.6110430276
2637.795276 0.6094781565
2677.165354 0.6079211328
2716.535433 0.6063698934
2755.905512 0.604822239
2795.275591 0.6032758061
2834.645669 0.6017280335
2874.015748 0.6001761212
2913.385827 0.5986169839
2952.755906 0.5970471944
2992.125984 0.595462906
3031.496063 0.59385977
3070.866142 0.592232837
3110.23622 0.5905763922
3149.606299 0.5888837955
3188.976378 0.5871473129
3228.346457 0.5853577188
3267.716535 0.5835039252
3307.086614 0.5815727701
3346.456693 0.5795479012
3385.826772 0.5774086415
3425.19685 0.5751302221
3464.566929 0.5726802508
3503.937008 0.5700138577
3543.307087 0.5670777043
3582.677165 0.5637979607
3622.047244 0.56005306
3661.417323 0.5556999066
3700.787402 0.5505324117
3740.15748 0.5440909008
3779.527559 0.5357832961
3818.897638 0.5247335843
3858.267717 0.5079089309
3897.637795 0.479738612
3937.007874 0.4369277888
3976.377953 0.3826134924
4015.748031 0.3249539065
4055.11811 0.2742108994
4094.488189 0.2382039807
4133.858268 0.2175740791
4173.228346 0.2075480117
4212.598425 0.2031321281
4251.968504 0.2012798636
4291.338583 0.2005195972
4330.708661 0.200210382
4370.07874 0.2000850897
4409.448819 0.2000343996
4448.818898 0.2000139044
4488.188976 0.2000056197
4527.559055 0.2000022713
4566.929134 0.2000009179
4606.299213 0.200000371
4645.669291 0.2000001499
4685.03937 0.2000000606
4724.409449 0.2000000245
4763.779528 0.2000000099
4803.149606 0.200000004
4842.519685 0.2000000016
4881.889764 0.2000000007
4921.259843 0.2000000003
4960.629921 0.2000000001
      5000        0.2
