    x (m)  Saturacao
         0          1
39.37007874 0.9530085408
78.74015748 0.9298388058
118.1102362 0.9113815247
157.480315 0.895785967
196.8503937 0.8822276564
236.2204724 0.8702262842
275.5905512 0.8594649283
314.9606299 0.8497189122
354.3307087 0.8408212884
393.7007874 0.8326437717
433.0708661 0.8250852449
472.4409449 0.8180643828
511.8110236 0.811514689
551.1811024 0.8053810337
590.5511811 0.7996171635
629.9212598 0.7941838688
669.2913386 0.7890476047
708.6614173 0.7841794365
748.0314961 0.7795542192
787.4015748 0.7751499527
826.7716535 0.7709472655
866.1417323 0.7669290005
905.511811 0.7630798754
944.8818898 0.7593862054
984.2519685 0.7558356712
1023.622047 0.7524171257
1062.992126 0.7491204304
1102.362205 0.7459363155
1141.732283 0.7428562597
1181.102362 0.7398723851
1220.472441 0.7369773654
1259.84252 0.7341643424
1299.212598 0.7314268518
1338.582677 0.7287587534
1377.952756 0.7261541651
1417.322835 0.7236074013
1456.692913 0.7211129068
1496.062992 0.7186651942
1535.433071 0.7162587781
1574.80315 0.7138880919
1614.173228 0.7115474203
1653.543307 0.7092307899
1692.913386 0.7069318521
1732.283465 0.7046437953
1771.653543 0.7023590727
1811.023622 0.7000693172
1850.393701 0.6977650454
1889.76378 0.6954350187
1929.133858 0.6930665676
1968.503937 0.6906437419
2007.874016 0.6881472142
2047.244094 0.6855547014
2086.614173 0.6828322676
2125.984252 0.6799448226
2165.354331 0.6768389323
2204.724409 0.6734282483
2244.094488 0.6696502611
2283.464567 0.6652845768
2322.834646 0.6601408089
2362.204724 0.6539609355
2401.574803 0.6454210155
2440.944882 0.6344817513
2480.314961 0.6158856001
2519.685039 0.5710937094
2559.055118 0.4922958431
2598.425197 0.3938951704
2637.795276 0.3009485629
2677.165354 0.2396862073
2716.535433 0.2126257817
2755.905512 0.2036357813
2795.275591 0.2010120636
2834.645669 0.200278924
2874.015748 0.2000766568
2913.385827 0.2000210514
2952.755906 0.2000057799
2992.125984 0.2000015868
3031.496063 0.2000004356
3070.866142 0.2000001196
3110.23622 0.2000000328
3149.606299 0.200000009
3188.976378 0.2000000025
3228.346457 0.2000000007
3267.716535 0.2000000002
3307.086614 0.2000000001
3346.456693        0.2
3385.826772        0.2
3425.19685        0.2
3464.566929        0.2
3503.937008        0.2
3543.307087        0.2
3582.677165        0.2
3622.047244        0.2
3661.417323        0.2
3700.787402        0.2
3740.15748        0.2
3779.527559        0.2
3818.897638        0.2
3858.267717        0.2
3897.637795        0.2
3937.007874        0.2
3976.377953        0.2
4015.748031        0.2
4055.11811        0.2
4094.488189        0.2
4133.858268        0.2
4173.228346        0.2
4212.598425        0.2
4251.968504        0.2
4291.338583        0.2
4330.708661        0.2
4370.07874        0.2
4409.448819        0.2
4448.818898        0.2
4488.188976        0.2
4527.559055        0.2
4566.929134        0.2
4606.299213        0.2
4645.669291        0.2
4685.03937        0.2
4724.409449        0.2
4763.779528        0.2
4803.149606        0.2
4842.519685        0.2
4881.889764        0.2
4921.259843        0.2
4960.629921        0.2
      5000        0.2
