    x (m)  Saturacao
         0          1
39.37007874 0.9708613897
78.74015748 0.955303105
118.1102362 0.9422731549
157.480315 0.9308122224
196.8503937 0.9205085761
236.2204724 0.9111231137
275.5905512 0.9024957023
314.9606299 0.8945101194
354.3307087 0.8870776361
393.7007874 0.880128136
433.0708661 0.8736048068
472.4409449 0.867460729
511.8110236 0.8616565639
551.1811024 0.8561589189
590.5511811 0.850939155
629.9212598 0.845972492
669.2913386 0.8412373243
708.6614173 0.8367146871
748.0314961 0.8323878333
787.4015748 0.828241895
826.7716535 0.8242636082
866.1417323 0.8204410873
905.511811 0.8167636387
944.8818898 0.8132216052
984.2519685 0.8098062354
1023.622047 0.8065095733
1062.992126 0.8033243642
1102.362205 0.8002439745
1141.732283 0.7972623222
1181.102362 0.7943738177
1220.472441 0.7915733116
1259.84252 0.7888560492
1299.212598 0.7862176317
1338.582677 0.7836539808
1377.952756 0.7811613083
1417.322835 0.778736089
1456.692913 0.7763750367
1496.062992 0.7740750828
1535.433071 0.771833357
1574.80315 0.7696471706
1614.173228 0.767514001
1653.543307 0.7654314776
1692.913386 0.7633973698
1732.283465 0.7614095757
1771.653543 0.7594661116
1811.023622 0.7575651029
1850.393701 0.7557047758
1889.76378 0.7538834494
1929.133858 0.7520995288
1968.503937 0.7503514985
2007.874016 0.7486379164
2047.244094 0.7469574086
2086.614173 0.745308664
2125.984252 0.7436904297
2165.354331 0.7421015067
2204.724409 0.7405407458
2244.094488 0.7390070436
2283.464567 0.7374993391
2322.834646 0.7360166099
2362.204724 0.7345578696
2401.574803 0.7331221641
2440.944882 0.731708569
2480.314961 0.7303161866
2519.685039 0.7289441428
2559.055118 0.7275915851
2598.425197 0.7262576792
2637.795276 0.7249416066
2677.165354 0.7236425618
2716.535433 0.7223597496
2755.905512 0.7210923825
2795.275591 0.7198396772
2834.645669 0.7186008522
2874.015748 0.7173751242
2913.385827 0.7161617048
2952.755906 0.714959797
2992.125984 0.7137685908
3031.496063 0.7125872592
3070.866142 0.7114149534
3110.23622 0.7102507972
3149.606299 0.7090938812
3188.976378 0.7079432561
3228.346457 0.7067979247
3267.716535 0.7056568336
3307.086614 0.7045188626
3346.456693 0.7033828133
3385.826772 0.7022473954
3425.19685 0.7011112105
3464.566929 0.6999727332
3503.937008 0.6988302889
3543.307087 0.6976820267
3582.677165 0.6965258866
3622.047244 0.6953595617
3661.417323 0.6941804485
3700.787402 0.6929855892
3740.15748 0.6917716016
3779.527559 0.6905345764
3818.897638 0.6892699857
3858.267717 0.6879725084
3897.637795 0.6866358444
3937.007874 0.6852525499
3976.377953 0.6838134836
4015.748031 0.6823077338
4055.11811 0.6807217838
4094.488189 0.6790381776
4133.858268 0.677236633
4173.228346 0.6752877283
4212.598425 0.6731558025
4251.968504 0.6707963741
4291.338583 0.6681273461
4330.708661 0.6650817602
4370.07874 0.6614930006
4409.448819 0.6571154836
4448.818898 0.6518010061
4488.188976 0.6443979616
4527.559055 0.6344582915
4566.929134 0.6190280679
4606.299213 0.5813645386
4645.669291 0.5090603235
4685.03937 0.4130561364
4724.409449 0.316893558
4763.779528 0.2484264104
4803.149606 0.2159061901
4842.519685 0.2046393125
4881.889764 0.2012969698
4921.259843 0.2003580072
4960.629921 0.2000984692
      5000 0.2000270569
