      DiasPressao (kPa)
        10      30000
        20    14863.8
        30   -412.345
        40   -15832.4
        50   -31400.6
        60   -47121.1
        70   -62998.6
        80   -79037.8
        90   -95243.7
       100    -111622
       110    -128177
       120    -144916
       130    -161845
       140    -178970
       150    -196299
       160    -213838
       170    -231595
       180    -249580
       190    -267800
       200    -286265
       210    -304985
       220    -323972
       230    -343236
       240    -362791
       250    -382650
       260    -402826
       270    -423337
       280    -444199
       290    -465430
       300    -487051
       310    -509084
       320    -531554
       330    -554486
       340    -577912
       350    -601863
       360    -626376
       370    -651493
       380    -677261
       390    -703731
       400    -730965
       410    -759032
       420    -788011
       430    -817998
       440    -849104
       450    -881462
       460    -915235
       470    -950622
       480    -987876
       490 -1.02732e+06
       500 -1.06938e+06
       510 -1.11464e+06
       520 -1.16395e+06
       530 -1.21856e+06
       540 -1.28058e+06
       550 -1.35387e+06
       560 -1.44722e+06
       570 -1.59051e+06
       580 -2.39292e+06
       590 -2.36051e+06
       600 -2.32667e+06
       610 -2.29122e+06
       620 -2.25388e+06
       630 -2.21434e+06
       640 -2.17216e+06
       650 -2.12675e+06
       660 -2.07725e+06
       670 -2.02238e+06
       680 -1.95999e+06
       690 -1.88611e+06
       700 -1.79157e+06
       710 -1.64444e+06
       720    -546584
       730    -569837
       740    -593604
       750    -617921
       760    -642826
       770    -668366
       780    -694589
       790    -721555
       800    -749328
       810    -777985
       820    -807615
       830    -838325
       840    -870237
       850    -903506
       860    -938315
       870    -974897
       880 -1.01355e+06
       890 -1.05466e+06
       900 -1.09875e+06
       910 -1.14655e+06
       920 -1.19917e+06
       930 -1.25834e+06
       940 -1.32714e+06
       950 -1.41201e+06
       960 -1.53125e+06
       970 -1.80774e+06
       980 -1.67338e+06
       990 -1.19001e+06
      1000 -1.24792e+06
      1010 -1.31481e+06
      1020 -1.39628e+06
      1030 -1.50719e+06
      1040 -1.72556e+06
      1050 -1.48493e+06
      1060 -1.66775e+06
      1070 -1.12523e+06
      1080 -1.17559e+06
      1090 -1.23163e+06
      1100 -1.29572e+06
      1110 -1.37241e+06
      1120 -1.47271e+06
      1130 -1.64053e+06
      1140    -315011
      1150    -334143
      1160    -353560
      1170    -373274
      1180    -393299
      1190    -413650
      1200    -434345
      1210    -455400
      1220    -476835
      1230    -498672
      1240    -520933
      1250    -543644
      1260    -566834
      1270    -590533
      1280    -614778
      1290    -639606
      1300    -665061
      1310    -691194
      1320    -718061
      1330    -745727
      1340    -774266
      1350    -803767
      1360    -834331
      1370    -866082
      1380    -899168
      1390    -933768
      1400    -970109
      1410 -1.00848e+06
      1420 -1.04924e+06
      1430 -1.09292e+06
      1440 -1.14019e+06
      1450 -1.19212e+06
      1460 -1.25031e+06
      1470 -1.31763e+06
      1480 -1.39985e+06
      1490 -1.51255e+06
      1500 -1.74164e+06
      1510 -1.53328e+06
      1520 -1.81612e+06
      1530 -1.68757e+06
      1540 -1.30822e+06
      1550 -1.38797e+06
      1560 -1.49494e+06
      1570 -1.6922e+06
      1580 -1.33776e+06
      1590 -1.42581e+06
      1600 -1.55344e+06
      1610 -1.91984e+06
      1620 -1.836e+06
      1630 -1.71937e+06
      1640 -1.46349e+06
      1650 -1.62153e+06
      1660 -1.83746e+08
      1670 -1.83746e+08
      1680 -1.83746e+08
      1690 -1.83746e+08
      1700 -1.83746e+08
      1710 -1.83745e+08
      1720 -1.83745e+08
      1730 -1.83745e+08
      1740 -1.83745e+08
      1750 -1.83744e+08
      1760 -1.83744e+08
      1770 -1.83744e+08
      1780 -1.83744e+08
      1790 -1.83743e+08
      1800 -1.83743e+08
      1810 -1.83743e+08
      1820 -1.83743e+08
      1830 -1.83742e+08
      1840 -1.83742e+08
      1850 -1.83742e+08
      1860 -1.83742e+08
      1870 -1.83741e+08
      1880 -1.83741e+08
      1890 -1.83741e+08
      1900 -1.83741e+08
      1910 -1.83741e+08
      1920 -1.8374e+08
      1930 -1.8374e+08
      1940 -1.8374e+08
      1950 -1.8374e+08
      1960 -1.83739e+08
      1970 -1.83739e+08
      1980 -1.83739e+08
      1990 -1.83739e+08
      2000 -1.83738e+08
      2010 -1.83738e+08
      2020 -1.83738e+08
      2030 -1.83738e+08
      2040 -1.83737e+08
      2050 -1.83737e+08
      2060 -1.83737e+08
      2070 -1.83737e+08
      2080 -1.83736e+08
      2090 -1.83736e+08
      2100 -1.83736e+08
      2110 -1.83736e+08
      2120 -1.83736e+08
      2130 -1.83735e+08
      2140 -1.83735e+08
      2150 -1.83735e+08
      2160 -1.83735e+08
      2170 -1.83734e+08
      2180 -1.83734e+08
      2190 -1.83734e+08
      2200 -1.83734e+08
      2210 -1.83733e+08
      2220 -1.83733e+08
      2230 -1.83733e+08
      2240 -1.83733e+08
      2250 -1.83732e+08
      2260 -1.83732e+08
      2270 -1.83732e+08
      2280 -1.83732e+08
      2290 -1.83731e+08
      2300 -1.83731e+08
      2310 -1.83731e+08
      2320 -1.83731e+08
      2330 -1.83731e+08
      2340 -1.8373e+08
      2350 -1.8373e+08
      2360 -1.8373e+08
      2370 -1.8373e+08
      2380 -1.83729e+08
      2390 -1.83729e+08
      2400 -1.83729e+08
      2410 -1.83729e+08
      2420 -1.83728e+08
      2430 -1.83728e+08
      2440 -1.83728e+08
      2450 -1.83728e+08
      2460 -1.83727e+08
      2470 -1.83727e+08
      2480 -1.83727e+08
      2490 -1.83727e+08
      2500 -1.83726e+08
      2510 -1.83726e+08
      2520 -1.83726e+08
      2530 -1.83726e+08
      2540 -1.83726e+08
      2550 -1.83725e+08
      2560 -1.83725e+08
      2570 -1.83725e+08
      2580 -1.83725e+08
      2590 -1.83724e+08
      2600 -1.83724e+08
      2610 -1.83724e+08
      2620 -1.83724e+08
      2630 -1.83723e+08
      2640 -1.83723e+08
      2650 -1.83723e+08
      2660 -1.83723e+08
      2670 -1.83722e+08
      2680 -1.83722e+08
      2690 -1.83722e+08
      2700 -1.83722e+08
      2710 -1.83721e+08
      2720 -1.83721e+08
      2730 -1.83721e+08
      2740 -1.83721e+08
      2750 -1.8372e+08
      2760 -1.8372e+08
      2770 -1.8372e+08
      2780 -1.8372e+08
      2790 -1.8372e+08
      2800 -1.83719e+08
      2810 -1.83719e+08
      2820 -1.83719e+08
      2830 -1.83719e+08
      2840 -1.83718e+08
      2850 -1.83718e+08
      2860 -1.83718e+08
      2870 -1.83718e+08
      2880 -1.83717e+08
      2890 -1.83717e+08
      2900 -1.83717e+08
      2910 -1.83717e+08
      2920 -1.83716e+08
      2930 -1.83716e+08
      2940 -1.83716e+08
      2950 -1.83716e+08
      2960 -1.83715e+08
      2970 -1.83715e+08
      2980 -1.83715e+08
      2990 -1.83715e+08
      3000 -1.83715e+08
      3010 -1.83714e+08
      3020 -1.83714e+08
      3030 -1.83714e+08
      3040 -1.83714e+08
      3050 -1.83713e+08
      3060 -1.83713e+08
      3070 -1.83713e+08
      3080 -1.83713e+08
      3090 -1.83712e+08
      3100 -1.83712e+08
      3110 -1.83712e+08
      3120 -1.83712e+08
      3130 -1.83711e+08
      3140 -1.83711e+08
      3150 -1.83711e+08
      3160 -1.83711e+08
      3170 -1.8371e+08
      3180 -1.8371e+08
      3190 -1.8371e+08
      3200 -1.8371e+08
      3210 -1.8371e+08
      3220 -1.83709e+08
      3230 -1.83709e+08
      3240 -1.83709e+08
      3250 -1.83709e+08
      3260 -1.83708e+08
      3270 -1.83708e+08
      3280 -1.83708e+08
      3290 -1.83708e+08
      3300 -1.83707e+08
      3310 -1.83707e+08
      3320 -1.83707e+08
      3330 -1.83707e+08
      3340 -1.83706e+08
      3350 -1.83706e+08
      3360 -1.83706e+08
      3370 -1.83706e+08
      3380 -1.83705e+08
      3390 -1.83705e+08
      3400 -1.83705e+08
      3410 -1.83705e+08
      3420 -1.83705e+08
      3430 -1.83704e+08
      3440 -1.83704e+08
      3450 -1.83704e+08
      3460 -1.83704e+08
      3470 -1.83703e+08
      3480 -1.83703e+08
      3490 -1.83703e+08
      3500 -1.83703e+08
      3510 -1.83702e+08
      3520 -1.83702e+08
      3530 -1.83702e+08
      3540 -1.83702e+08
      3550 -1.83701e+08
      3560 -1.83701e+08
      3570 -1.83701e+08
      3580 -1.83701e+08
      3590 -1.837e+08
      3600 -1.837e+08
      3610 -1.837e+08
      3620 -1.837e+08
      3630 -1.837e+08
      3640 -1.83699e+08
      3650 -1.83699e+08
      3660 -1.83699e+08
      3670 -1.83699e+08
      3680 -1.83698e+08
      3690 -1.83698e+08
      3700 -1.83698e+08
      3710 -1.83698e+08
      3720 -1.83697e+08
      3730 -1.83697e+08
      3740 -1.83697e+08
      3750 -1.83697e+08
      3760 -1.83696e+08
      3770 -1.83696e+08
      3780 -1.83696e+08
      3790 -1.83696e+08
      3800 -1.83695e+08
      3810 -1.83695e+08
      3820 -1.83695e+08
      3830 -1.83695e+08
      3840 -1.83695e+08
      3850 -1.83694e+08
      3860 -1.83694e+08
      3870 -1.83694e+08
      3880 -1.83694e+08
      3890 -1.83693e+08
      3900 -1.83693e+08
      3910 -1.83693e+08
      3920 -1.83693e+08
      3930 -1.83692e+08
      3940 -1.83692e+08
      3950 -1.83692e+08
      3960 -1.83692e+08
      3970 -1.83691e+08
      3980 -1.83691e+08
      3990 -1.83691e+08
      4000 -1.83691e+08
      4010 -1.8369e+08
      4020 -1.8369e+08
      4030 -1.8369e+08
      4040 -1.8369e+08
      4050 -1.83689e+08
      4060 -1.83689e+08
      4070 -1.83689e+08
      4080 -1.83689e+08
      4090 -1.83689e+08
      4100 -1.83688e+08
      4110 -1.83688e+08
      4120 -1.83688e+08
      4130 -1.83688e+08
      4140 -1.83687e+08
      4150 -1.83687e+08
      4160 -1.83687e+08
      4170 -1.83687e+08
      4180 -1.83686e+08
      4190 -1.83686e+08
      4200 -1.83686e+08
      4210 -1.83686e+08
      4220 -1.83685e+08
      4230 -1.83685e+08
      4240 -1.83685e+08
      4250 -1.83685e+08
      4260 -1.83684e+08
      4270 -1.83684e+08
      4280 -1.83684e+08
      4290 -1.83684e+08
      4300 -1.83684e+08
      4310 -1.83683e+08
      4320 -1.83683e+08
      4330 -1.83683e+08
      4340 -1.83683e+08
      4350 -1.83682e+08
      4360 -1.83682e+08
      4370 -1.83682e+08
      4380 -1.83682e+08
      4390 -1.83681e+08
      4400 -1.83681e+08
      4410 -1.83681e+08
      4420 -1.83681e+08
      4430 -1.8368e+08
      4440 -1.8368e+08
      4450 -1.8368e+08
      4460 -1.8368e+08
      4470 -1.83679e+08
      4480 -1.83679e+08
      4490 -1.83679e+08
      4500 -1.83679e+08
      4510 -1.83679e+08
      4520 -1.83678e+08
      4530 -1.83678e+08
      4540 -1.83678e+08
      4550 -1.83678e+08
      4560 -1.83677e+08
      4570 -1.83677e+08
      4580 -1.83677e+08
      4590 -1.83677e+08
      4600 -1.83676e+08
      4610 -1.83676e+08
      4620 -1.83676e+08
      4630 -1.83676e+08
      4640 -1.83675e+08
      4650 -1.83675e+08
      4660 -1.83675e+08
      4670 -1.83675e+08
      4680 -1.83674e+08
      4690 -1.83674e+08
      4700 -1.83674e+08
      4710 -1.83674e+08
      4720 -1.83674e+08
      4730 -1.83673e+08
      4740 -1.83673e+08
      4750 -1.83673e+08
      4760 -1.83673e+08
      4770 -1.83672e+08
      4780 -1.83672e+08
      4790 -1.83672e+08
      4800 -1.83672e+08
      4810 -1.83671e+08
      4820 -1.83671e+08
      4830 -1.83671e+08
      4840 -1.83671e+08
      4850 -1.8367e+08
      4860 -1.8367e+08
      4870 -1.8367e+08
      4880 -1.8367e+08
      4890 -1.83669e+08
      4900 -1.83669e+08
      4910 -1.83669e+08
      4920 -1.83669e+08
      4930 -1.83669e+08
      4940 -1.83668e+08
      4950 -1.83668e+08
      4960 -1.83668e+08
      4970 -1.83668e+08
      4980 -1.83667e+08
      4990 -1.83667e+08
      5000 -1.83667e+08
      5010 -1.83667e+08
      5020 -1.83666e+08
      5030 -1.83666e+08
      5040 -1.83666e+08
      5050 -1.83666e+08
      5060 -1.83665e+08
      5070 -1.83665e+08
      5080 -1.83665e+08
      5090 -1.83665e+08
      5100 -1.83664e+08
      5110 -1.83664e+08
      5120 -1.83664e+08
      5130 -1.83664e+08
      5140 -1.83664e+08
      5150 -1.83663e+08
      5160 -1.83663e+08
      5170 -1.83663e+08
      5180 -1.83663e+08
      5190 -1.83662e+08
      5200 -1.83662e+08
      5210 -1.83662e+08
      5220 -1.83662e+08
      5230 -1.83661e+08
      5240 -1.83661e+08
      5250 -1.83661e+08
      5260 -1.83661e+08
      5270 -1.8366e+08
      5280 -1.8366e+08
      5290 -1.8366e+08
      5300 -1.8366e+08
      5310 -1.83659e+08
      5320 -1.83659e+08
      5330 -1.83659e+08
      5340 -1.83659e+08
      5350 -1.83658e+08
      5360 -1.83658e+08
      5370 -1.83658e+08
      5380 -1.83658e+08
      5390 -1.83658e+08
      5400 -1.83657e+08
      5410 -1.83657e+08
      5420 -1.83657e+08
      5430 -1.83657e+08
      5440 -1.83656e+08
      5450 -1.83656e+08
      5460 -1.83656e+08
      5470 -1.83656e+08
      5480 -1.83655e+08
      5490 -1.83655e+08
      5500 -1.83655e+08
      5510 -1.83655e+08
      5520 -1.83654e+08
      5530 -1.83654e+08
      5540 -1.83654e+08
      5550 -1.83654e+08
      5560 -1.83653e+08
      5570 -1.83653e+08
      5580 -1.83653e+08
      5590 -1.83653e+08
      5600 -1.83653e+08
      5610 -1.83652e+08
      5620 -1.83652e+08
      5630 -1.83652e+08
      5640 -1.83652e+08
      5650 -1.83651e+08
      5660 -1.83651e+08
      5670 -1.83651e+08
      5680 -1.83651e+08
      5690 -1.8365e+08
      5700 -1.8365e+08
      5710 -1.8365e+08
      5720 -1.8365e+08
      5730 -1.83649e+08
      5740 -1.83649e+08
      5750 -1.83649e+08
      5760 -1.83649e+08
      5770 -1.83648e+08
      5780 -1.83648e+08
      5790 -1.83648e+08
      5800 -1.83648e+08
      5810 -1.83648e+08
      5820 -1.83647e+08
      5830 -1.83647e+08
      5840 -1.83647e+08
      5850 -1.83647e+08
      5860 -1.83646e+08
      5870 -1.83646e+08
      5880 -1.83646e+08
      5890 -1.83646e+08
      5900 -1.83645e+08
      5910 -1.83645e+08
      5920 -1.83645e+08
      5930 -1.83645e+08
      5940 -1.83644e+08
      5950 -1.83644e+08
      5960 -1.83644e+08
      5970 -1.83644e+08
      5980 -1.83643e+08
      5990 -1.83643e+08
      6000 -1.83643e+08
      6010 -1.83643e+08
      6020 -1.83643e+08
      6030 -1.83642e+08
      6040 -1.83642e+08
      6050 -1.83642e+08
      6060 -1.83642e+08
      6070 -1.83641e+08
      6080 -1.83641e+08
      6090 -1.83641e+08
      6100 -1.83641e+08
      6110 -1.8364e+08
      6120 -1.8364e+08
      6130 -1.8364e+08
      6140 -1.8364e+08
      6150 -1.83639e+08
      6160 -1.83639e+08
      6170 -1.83639e+08
      6180 -1.83639e+08
      6190 -1.83638e+08
      6200 -1.83638e+08
      6210 -1.83638e+08
      6220 -1.83638e+08
      6230 -1.83638e+08
      6240 -1.83637e+08
      6250 -1.83637e+08
      6260 -1.83637e+08
      6270 -1.83637e+08
      6280 -1.83636e+08
      6290 -1.83636e+08
      6300 -1.83636e+08
      6310 -1.83636e+08
      6320 -1.83635e+08
      6330 -1.83635e+08
      6340 -1.83635e+08
      6350 -1.83635e+08
      6360 -1.83634e+08
      6370 -1.83634e+08
      6380 -1.83634e+08
      6390 -1.83634e+08
      6400 -1.83633e+08
      6410 -1.83633e+08
      6420 -1.83633e+08
      6430 -1.83633e+08
      6440 -1.83633e+08
      6450 -1.83632e+08
      6460 -1.83632e+08
      6470 -1.83632e+08
      6480 -1.83632e+08
      6490 -1.83631e+08
      6500 -1.83631e+08
      6510 -1.83631e+08
      6520 -1.83631e+08
      6530 -1.8363e+08
      6540 -1.8363e+08
      6550 -1.8363e+08
      6560 -1.8363e+08
      6570 -1.83629e+08
      6580 -1.83629e+08
      6590 -1.83629e+08
      6600 -1.83629e+08
      6610 -1.83628e+08
      6620 -1.83628e+08
      6630 -1.83628e+08
      6640 -1.83628e+08
      6650 -1.83627e+08
      6660 -1.83627e+08
      6670 -1.83627e+08
      6680 -1.83627e+08
      6690 -1.83627e+08
      6700 -1.83626e+08
      6710 -1.83626e+08
      6720 -1.83626e+08
      6730 -1.83626e+08
      6740 -1.83625e+08
      6750 -1.83625e+08
      6760 -1.83625e+08
      6770 -1.83625e+08
      6780 -1.83624e+08
      6790 -1.83624e+08
      6800 -1.83624e+08
      6810 -1.83624e+08
      6820 -1.83623e+08
      6830 -1.83623e+08
      6840 -1.83623e+08
      6850 -1.83623e+08
      6860 -1.83622e+08
      6870 -1.83622e+08
      6880 -1.83622e+08
      6890 -1.83622e+08
      6900 -1.83622e+08
      6910 -1.83621e+08
      6920 -1.83621e+08
      6930 -1.83621e+08
      6940 -1.83621e+08
      6950 -1.8362e+08
      6960 -1.8362e+08
      6970 -1.8362e+08
      6980 -1.8362e+08
      6990 -1.83619e+08
      7000 -1.83619e+08
      7010 -1.83619e+08
      7020 -1.83619e+08
      7030 -1.83618e+08
      7040 -1.83618e+08
      7050 -1.83618e+08
      7060 -1.83618e+08
      7070 -1.83617e+08
      7080 -1.83617e+08
      7090 -1.83617e+08
      7100 -1.83617e+08
      7110 -1.83617e+08
      7120 -1.83616e+08
      7130 -1.83616e+08
      7140 -1.83616e+08
      7150 -1.83616e+08
      7160 -1.83615e+08
      7170 -1.83615e+08
      7180 -1.83615e+08
      7190 -1.83615e+08
      7200 -1.83614e+08
      7210 -1.83614e+08
      7220 -1.83614e+08
      7230 -1.83614e+08
      7240 -1.83613e+08
      7250 -1.83613e+08
      7260 -1.83613e+08
      7270 -1.83613e+08
      7280 -1.83612e+08
      7290 -1.83612e+08
      7300 -1.83612e+08
      7310 -1.83612e+08
      7320 -1.83612e+08
      7330 -1.83611e+08
      7340 -1.83611e+08
      7350 -1.83611e+08
      7360 -1.83611e+08
      7370 -1.8361e+08
      7380 -1.8361e+08
      7390 -1.8361e+08
      7400 -1.8361e+08
      7410 -1.83609e+08
      7420 -1.83609e+08
      7430 -1.83609e+08
      7440 -1.83609e+08
      7450 -1.83608e+08
      7460 -1.83608e+08
      7470 -1.83608e+08
      7480 -1.83608e+08
      7490 -1.83607e+08
      7500 -1.83607e+08
      7510 -1.83607e+08
      7520 -1.83607e+08
      7530 -1.83607e+08
      7540 -1.83606e+08
      7550 -1.83606e+08
      7560 -1.83606e+08
      7570 -1.83606e+08
      7580 -1.83605e+08
      7590 -1.83605e+08
      7600 -1.83605e+08
      7610 -1.83605e+08
      7620 -1.83604e+08
      7630 -1.83604e+08
      7640 -1.83604e+08
      7650 -1.83604e+08
      7660 -1.83603e+08
      7670 -1.83603e+08
      7680 -1.83603e+08
      7690 -1.83603e+08
      7700 -1.83602e+08
      7710 -1.83602e+08
      7720 -1.83602e+08
      7730 -1.83602e+08
      7740 -1.83602e+08
      7750 -1.83601e+08
      7760 -1.83601e+08
      7770 -1.83601e+08
      7780 -1.83601e+08
      7790 -1.836e+08
      7800 -1.836e+08
      7810 -1.836e+08
      7820 -1.836e+08
      7830 -1.83599e+08
      7840 -1.83599e+08
      7850 -1.83599e+08
      7860 -1.83599e+08
      7870 -1.83598e+08
      7880 -1.83598e+08
      7890 -1.83598e+08
      7900 -1.83598e+08
      7910 -1.83597e+08
      7920 -1.83597e+08
      7930 -1.83597e+08
      7940 -1.83597e+08
      7950 -1.83596e+08
      7960 -1.83596e+08
      7970 -1.83596e+08
      7980 -1.83596e+08
      7990 -1.83596e+08
      8000 -1.83595e+08
      8010 -1.83595e+08
      8020 -1.83595e+08
      8030 -1.83595e+08
      8040 -1.83594e+08
      8050 -1.83594e+08
      8060 -1.83594e+08
      8070 -1.83594e+08
      8080 -1.83593e+08
      8090 -1.83593e+08
      8100 -1.83593e+08
      8110 -1.83593e+08
      8120 -1.83592e+08
      8130 -1.83592e+08
      8140 -1.83592e+08
      8150 -1.83592e+08
      8160 -1.83591e+08
      8170 -1.83591e+08
      8180 -1.83591e+08
      8190 -1.83591e+08
      8200 -1.83591e+08
      8210 -1.8359e+08
      8220 -1.8359e+08
      8230 -1.8359e+08
      8240 -1.8359e+08
      8250 -1.83589e+08
      8260 -1.83589e+08
      8270 -1.83589e+08
      8280 -1.83589e+08
      8290 -1.83588e+08
      8300 -1.83588e+08
      8310 -1.83588e+08
      8320 -1.83588e+08
      8330 -1.83587e+08
      8340 -1.83587e+08
      8350 -1.83587e+08
      8360 -1.83587e+08
      8370 -1.83586e+08
      8380 -1.83586e+08
      8390 -1.83586e+08
      8400 -1.83586e+08
      8410 -1.83586e+08
      8420 -1.83585e+08
      8430 -1.83585e+08
