    x (m) Pressao (kPa)
         0 35723.5876
161.2903226 39237.23349
322.5806452 41646.87075
483.8709677 43176.49825
645.1612903 44074.10476
806.4516129 44561.06277
967.7419355 44805.5768
1129.032258 44919.43089
1290.322581 44968.70986
1451.612903 44988.58909
1612.903226 44996.08415
1774.193548 44998.73272
1935.483871 44999.61238
2096.774194 44999.8877
2258.064516 44999.96912
2419.354839 44999.99192
2580.645161 44999.99799
2741.935484 44999.99952
2903.225806 44999.99989
3064.516129 44999.99998
3225.806452      45000
3387.096774      45000
3548.387097      45000
3709.677419      45000
3870.967742      45000
4032.258065      45000
4193.548387      45000
4354.83871      45000
4516.129032      45000
4677.419355      45000
4838.709677      45000
      5000      45000
