    x (m) Pressao (kPa)
         0 32113.58617
161.2903226 35908.78523
322.5806452 38822.47206
483.8709677 40963.15566
645.1612903 42466.1935
806.4516129 43473.79015
967.7419355 44118.34648
1129.032258 44511.71217
1290.322581 44740.7584
1451.612903 44868.04302
1612.903226 44935.58539
1774.193548 44969.83174
1935.483871 44986.43652
2096.774194 44994.14229
2258.064516 44997.56817
2419.354839 44999.02877
2580.645161 44999.62654
2741.935484 44999.86163
2903.225806 44999.95056
3064.516129 44999.98295
3225.806452 44999.99432
3387.096774 44999.99817
3548.387097 44999.99943
3709.677419 44999.99983
3870.967742 44999.99995
4032.258065 44999.99999
4193.548387      45000
4354.83871      45000
4516.129032      45000
4677.419355      45000
4838.709677      45000
      5000      45000
