    x (m) Pressao (kPa)
         0 38918.39092
39.37007874 39970.57026
78.74015748 40888.40591
118.1102362 41678.51587
157.480315 42349.46591
196.8503937 42911.31667
236.2204724 43375.13025
275.5905512 43752.47277
314.9606299 44054.94787
354.3307087 44293.78935
393.7007874 44479.53246
433.0708661  44621.774
472.4409449 44729.02204
511.8110236 44808.62876
551.1811024 44866.79421
590.5511811 44908.62552
629.9212598 44938.23515
669.2913386 44958.86239
708.6614173 44973.00451
748.0314961 44982.5467
787.4015748 44988.88309
826.7716535 44993.02407
866.1417323 44995.68751
905.511811 44997.37358
944.8818898 44998.42415
984.2519685 44999.06848
1023.622047 44999.45749
1062.992126 44999.6887
1102.362205 44999.82399
1141.732283 44999.90194
1181.102362 44999.94616
1220.472441 44999.97087
1259.84252 44999.98447
1299.212598 44999.99184
1338.582677 44999.99577
1377.952756 44999.99784
1417.322835 44999.99891
1456.692913 44999.99946
1496.062992 44999.99974
1535.433071 44999.99987
1574.80315 44999.99994
1614.173228 44999.99997
1653.543307 44999.99999
1692.913386 44999.99999
1732.283465      45000
1771.653543      45000
1811.023622      45000
1850.393701      45000
1889.76378      45000
1929.133858      45000
1968.503937      45000
2007.874016      45000
2047.244094      45000
2086.614173      45000
2125.984252      45000
2165.354331      45000
2204.724409      45000
2244.094488      45000
2283.464567      45000
2322.834646      45000
2362.204724      45000
2401.574803      45000
2440.944882      45000
2480.314961      45000
2519.685039      45000
2559.055118      45000
2598.425197      45000
2637.795276      45000
2677.165354      45000
2716.535433      45000
2755.905512      45000
2795.275591      45000
2834.645669      45000
2874.015748      45000
2913.385827      45000
2952.755906      45000
2992.125984      45000
3031.496063      45000
3070.866142      45000
3110.23622      45000
3149.606299      45000
3188.976378      45000
3228.346457      45000
3267.716535      45000
3307.086614      45000
3346.456693      45000
3385.826772      45000
3425.19685      45000
3464.566929      45000
3503.937008      45000
3543.307087      45000
3582.677165      45000
3622.047244      45000
3661.417323      45000
3700.787402      45000
3740.15748      45000
3779.527559      45000
3818.897638      45000
3858.267717      45000
3897.637795      45000
3937.007874      45000
3976.377953      45000
4015.748031      45000
4055.11811      45000
4094.488189      45000
4133.858268      45000
4173.228346      45000
4212.598425      45000
4251.968504      45000
4291.338583      45000
4330.708661      45000
4370.07874      45000
4409.448819      45000
4448.818898      45000
4488.188976      45000
4527.559055      45000
4566.929134      45000
4606.299213      45000
4645.669291      45000
4685.03937      45000
4724.409449      45000
4763.779528      45000
4803.149606      45000
4842.519685      45000
4881.889764      45000
4921.259843      45000
4960.629921      45000
      5000      45000
