    x (m) Pressao (kPa)
         0 40662.97263
19.60784314 41208.13536
39.21568627 41703.65397
58.82352941 42151.1347
78.43137255 42552.55983
98.03921569 42910.23525
117.6470588 43226.73279
137.254902 43504.8285
156.8627451 43747.43952
176.4705882 43957.56176
196.0784314 44138.21048
215.6862745 44292.36576
235.2941176 44422.92409
254.9019608 44532.65739
274.5098039 44624.1798
294.1176471 44699.92264
313.7254902 44762.11733
333.3333333 44812.78575
352.9411765 44853.73732
372.5490196 44886.57192
392.1568627 44912.68763
411.7647059 44933.2922
431.372549 44949.41726
450.9803922 44961.93431
470.5882353 44971.57155
490.1960784 44978.93095
509.8039216 44984.50491
529.4117647 44988.69194
549.0196078 44991.81131
568.627451 44994.11612
588.2352941 44995.80506
607.8431373 44997.03248
627.4509804 44997.91715
647.0588235 44998.5495
666.6666667 44998.99778
686.2745098 44999.31294
705.8823529 44999.53269
725.4901961 44999.68465
745.0980392 44999.78886
764.7058824 44999.85975
784.3137255 44999.90756
803.9215686 44999.93956
823.5294118 44999.96079
843.1372549 44999.97476
862.745098 44999.98388
882.3529412 44999.98978
901.9607843 44999.99358
921.5686275 44999.99599
941.1764706 44999.99752
960.7843137 44999.99848
980.3921569 44999.99907
      1000 44999.99944
1019.607843 44999.99966
1039.215686 44999.9998
1058.823529 44999.99988
1078.431373 44999.99993
1098.039216 44999.99996
1117.647059 44999.99998
1137.254902 44999.99999
1156.862745 44999.99999
1176.470588      45000
1196.078431      45000
1215.686275      45000
1235.294118      45000
1254.901961      45000
1274.509804      45000
1294.117647      45000
1313.72549      45000
1333.333333      45000
1352.941176      45000
1372.54902      45000
1392.156863      45000
1411.764706      45000
1431.372549      45000
1450.980392      45000
1470.588235      45000
1490.196078      45000
1509.803922      45000
1529.411765      45000
1549.019608      45000
1568.627451      45000
1588.235294      45000
1607.843137      45000
1627.45098      45000
1647.058824      45000
1666.666667      45000
1686.27451      45000
1705.882353      45000
1725.490196      45000
1745.098039      45000
1764.705882      45000
1784.313725      45000
1803.921569      45000
1823.529412      45000
1843.137255      45000
1862.745098      45000
1882.352941      45000
1901.960784      45000
1921.568627      45000
1941.176471      45000
1960.784314      45000
1980.392157      45000
      2000      45000
2019.607843      45000
2039.215686      45000
2058.823529      45000
2078.431373      45000
2098.039216      45000
2117.647059      45000
2137.254902      45000
2156.862745      45000
2176.470588      45000
2196.078431      45000
2215.686275      45000
2235.294118      45000
2254.901961      45000
2274.509804      45000
2294.117647      45000
2313.72549      45000
2333.333333      45000
2352.941176      45000
2372.54902      45000
2392.156863      45000
2411.764706      45000
2431.372549      45000
2450.980392      45000
2470.588235      45000
2490.196078      45000
2509.803922      45000
2529.411765      45000
2549.019608      45000
2568.627451      45000
2588.235294      45000
2607.843137      45000
2627.45098      45000
2647.058824      45000
2666.666667      45000
2686.27451      45000
2705.882353      45000
2725.490196      45000
2745.098039      45000
2764.705882      45000
2784.313725      45000
2803.921569      45000
2823.529412      45000
2843.137255      45000
2862.745098      45000
2882.352941      45000
2901.960784      45000
2921.568627      45000
2941.176471      45000
2960.784314      45000
2980.392157      45000
      3000      45000
3019.607843      45000
3039.215686      45000
3058.823529      45000
3078.431373      45000
3098.039216      45000
3117.647059      45000
3137.254902      45000
3156.862745      45000
3176.470588      45000
3196.078431      45000
3215.686275      45000
3235.294118      45000
3254.901961      45000
3274.509804      45000
3294.117647      45000
3313.72549      45000
3333.333333      45000
3352.941176      45000
3372.54902      45000
3392.156863      45000
3411.764706      45000
3431.372549      45000
3450.980392      45000
3470.588235      45000
3490.196078      45000
3509.803922      45000
3529.411765      45000
3549.019608      45000
3568.627451      45000
3588.235294      45000
3607.843137      45000
3627.45098      45000
3647.058824      45000
3666.666667      45000
3686.27451      45000
3705.882353      45000
3725.490196      45000
3745.098039      45000
3764.705882      45000
3784.313725      45000
3803.921569      45000
3823.529412      45000
3843.137255      45000
3862.745098      45000
3882.352941      45000
3901.960784      45000
3921.568627      45000
3941.176471      45000
3960.784314      45000
3980.392157      45000
      4000      45000
4019.607843      45000
4039.215686      45000
4058.823529      45000
4078.431373      45000
4098.039216      45000
4117.647059      45000
4137.254902      45000
4156.862745      45000
4176.470588      45000
4196.078431      45000
4215.686275      45000
4235.294118      45000
4254.901961      45000
4274.509804      45000
4294.117647      45000
4313.72549      45000
4333.333333      45000
4352.941176      45000
4372.54902      45000
4392.156863      45000
4411.764706      45000
4431.372549      45000
4450.980392      45000
4470.588235      45000
4490.196078      45000
4509.803922      45000
4529.411765      45000
4549.019608      45000
4568.627451      45000
4588.235294      45000
4607.843137      45000
4627.45098      45000
4647.058824      45000
4666.666667      45000
4686.27451      45000
4705.882353      45000
4725.490196      45000
4745.098039      45000
4764.705882      45000
4784.313725      45000
4803.921569      45000
4823.529412      45000
4843.137255      45000
4862.745098      45000
4882.352941      45000
4901.960784      45000
4921.568627      45000
4941.176471      45000
4960.784314      45000
4980.392157      45000
      5000      45000
