    x (m) Pressao (kPa)
         0 33674.67215
161.2903226 37366.44501
322.5806452 40090.67602
483.8709677 41993.08446
645.1612903 43248.35435
806.4516129 44030.29544
967.7419355 44490.03151
1129.032258 44745.21526
1290.322581 44879.02682
1451.612903 44945.37828
1612.903226 44976.5271
1774.193548 44990.38998
1935.483871 44996.24755
2096.774194 44998.6009
2258.064516 44999.50128
2419.354839 44999.82984
2580.645161 44999.94436
2741.935484 44999.98254
2903.225806 44999.99474
3064.516129 44999.99847
3225.806452 44999.99957
3387.096774 44999.99989
3548.387097 44999.99997
3709.677419 44999.99999
3870.967742      45000
4032.258065      45000
4193.548387      45000
4354.83871      45000
4516.129032      45000
4677.419355      45000
4838.709677      45000
      5000      45000
