    x (m) Pressao (kPa)
         0 24111.50132
161.2903226 28223.61191
322.5806452 31736.96126
483.8709677 34683.52929
645.1612903 37108.34181
806.4516129 39065.61801
967.7419355 40614.79898
1129.032258 41816.81104
1290.322581 42730.85769
1451.612903 43411.92802
1612.903226 43909.09849
1774.193548 44264.60553
1935.483871 44513.59104
2096.774194  44684.376
2258.064516 44799.10001
2419.354839 44874.57095
2580.645161 44923.19253
2741.935484 44953.86975
2903.225806 44972.8265
3064.516129 44984.30025
3225.806452 44991.10296
3387.096774 44995.05427
3548.387097  44997.303
3709.677419 44998.55709
3870.967742 44999.24255
4032.258065 44999.60981
4193.548387 44999.80271
4354.83871 44999.90203
4516.129032 44999.95211
4677.419355 44999.97672
4838.709677 44999.98823
      5000 44999.99274
