    x (m) Pressao (kPa)
         0 30723.18926
161.2903226 34597.34193
322.5806452 37654.13207
483.8709677 39979.06272
645.1612903 41681.70579
806.4516129 42881.31184
967.7419355 43693.94838
1129.032258 44223.04665
1290.322581 44554.09101
1451.612903 44753.13584
1612.903226 44868.1636
1774.193548 44932.07393
1935.483871 44966.2273
2096.774194 44983.79063
2258.064516 44992.48701
2419.354839 44996.63561
2580.645161 44998.54364
2741.935484 44999.39027
2903.225806 44999.75297
3064.516129 44999.90308
3225.806452 44999.96316
3387.096774 44999.98642
3548.387097 44999.99515
3709.677419 44999.99832
3870.967742 44999.99943
4032.258065 44999.99981
4193.548387 44999.99994
4354.83871 44999.99998
4516.129032 44999.99999
4677.419355      45000
4838.709677      45000
      5000      45000
