    x (m) Pressao (kPa)
         0 26768.08092
161.2903226 30803.47996
322.5806452 34166.76671
483.8709677 36904.28069
645.1612903 39078.96614
806.4516129 40764.18038
967.7419355 42037.50539
1129.032258 42975.25994
1290.322581 43648.20004
1451.612903 44118.6375
1612.903226 44438.96507
1774.193548 44651.39141
1935.483871 44788.5816
2096.774194 44874.86752
2258.064516 44927.72192
2419.354839 44959.25651
2580.645161 44977.58455
2741.935484 44987.96315
2903.225806 44993.69035
3064.516129 44996.77084
3225.806452 44998.38624
3387.096774 44999.21234
3548.387097 44999.62444
3709.677419 44999.82503
3870.967742 44999.92033
4032.258065 44999.96454
4193.548387 44999.98457
4354.83871 44999.99343
4516.129032 44999.99726
4677.419355 44999.99887
4838.709677 44999.99953
      5000 44999.99976
