    x (m) Pressao (kPa)
         0 33649.68897
161.2903226 37333.80002
322.5806452 40056.76673
483.8709677 41962.37413
645.1612903 43223.22452
806.4516129 44011.39487
967.7419355 44476.84435
1129.032258 44736.63364
1290.322581 44873.7999
1451.612903 44942.39087
1612.903226 44974.92146
1774.193548 44989.57682
1935.483871 44995.85874
2096.774194 44998.42504
2258.064516 44999.42589
2419.354839 44999.79914
2580.645161 44999.93246
2741.935484 44999.97815
2903.225806 44999.99319
3064.516129 44999.99795
3225.806452 44999.9994
3387.096774 44999.99983
3548.387097 44999.99995
3709.677419 44999.99999
3870.967742      45000
4032.258065      45000
4193.548387      45000
4354.83871      45000
4516.129032      45000
4677.419355      45000
4838.709677      45000
      5000      45000
