    x (m) Pressao (kPa)
         0 29914.0133
161.2903226 34829.43148
322.5806452 38458.33877
483.8709677 40993.11958
645.1612903 42665.82125
806.4516129 43707.8217
967.7419355 44320.45381
1129.032258 44660.4984
1290.322581 44838.80501
1451.612903 44927.21808
1612.903226 44968.72322
1774.193548 44987.19505
1935.483871 44995.00002
2096.774194 44998.13576
2258.064516 44999.33548
2419.354839 44999.77327
2580.645161 44999.92586
2741.935484 44999.97674
2903.225806 44999.99299
3064.516129 44999.99797
3225.806452 44999.99943
3387.096774 44999.99985
3548.387097 44999.99996
3709.677419 44999.99999
3870.967742      45000
4032.258065      45000
4193.548387      45000
4354.83871      45000
4516.129032      45000
4677.419355      45000
4838.709677      45000
      5000      45000
