    x (m) Pressao (kPa)
         0 37442.56865
161.2903226 39907.22062
322.5806452 41725.07136
483.8709677 42994.22284
645.1612903 43831.56354
806.4516129 44353.15054
967.7419355 44659.81546
1129.032258 44830.03795
1290.322581 44919.29998
1451.612903 44963.56201
1612.903226 44984.34119
1774.193548 44993.58912
1935.483871 44997.49672
2096.774194 44999.06665
2258.064516 44999.66731
2419.354839 44999.88649
2580.645161 44999.96288
2741.935484 44999.98835
2903.225806 44999.99649
3064.516129 44999.99898
3225.806452 44999.99972
3387.096774 44999.99992
3548.387097 44999.99998
3709.677419      45000
3870.967742      45000
4032.258065      45000
4193.548387      45000
4354.83871      45000
4516.129032      45000
4677.419355      45000
4838.709677      45000
      5000      45000
