    x (m) Pressao (kPa)
         0 41217.68417
161.2903226 42451.7438
322.5806452 43361.51572
483.8709677 43996.5297
645.1612903 44415.44628
806.4516129 44676.38579
967.7419355 44829.80513
1129.032258 44914.96627
1290.322581 44959.6244
1451.612903 44981.76926
1612.903226 44992.1655
1774.193548 44996.79246
1935.483871 44998.74754
2096.774194 44999.53302
2258.064516 44999.83354
2419.354839 44999.94321
2580.645161 44999.98143
2741.935484 44999.99417
2903.225806 44999.99824
3064.516129 44999.99949
3225.806452 44999.99986
3387.096774 44999.99996
3548.387097 44999.99999
3709.677419      45000
3870.967742      45000
4032.258065      45000
4193.548387      45000
4354.83871      45000
4516.129032      45000
4677.419355      45000
4838.709677      45000
      5000      45000
