    x (m) Pressao (kPa)
         0 33657.76862
161.2903226 37345.94372
322.5806452 40070.56014
483.8709677 41975.88524
645.1612903 43235.13121
806.4516129 44020.99956
967.7419355 44483.99393
1129.032258 44741.56681
1290.322581 44876.96493
1451.612903 44944.28414
1612.903226 44975.98018
1774.193548 44990.13176
1935.483871 44996.13211
2096.774194 44998.55194
2258.064516 44999.48155
2419.354839 44999.82226
2580.645161 44999.94158
2741.935484 44999.98157
2903.225806 44999.99441
3064.516129 44999.99837
3225.806452 44999.99954
3387.096774 44999.99988
3548.387097 44999.99997
3709.677419 44999.99999
3870.967742      45000
4032.258065      45000
4193.548387      45000
4354.83871      45000
4516.129032      45000
4677.419355      45000
4838.709677      45000
      5000      45000
