    x (m) Pressao (kPa)
         0 28245.65183
161.2903226 32228.77476
322.5806452 35491.42017
483.8709677 38091.24132
645.1612903 40105.00858
806.4516129 41620.27532
967.7419355 42727.30369
1129.032258 43512.25744
1290.322581 44052.28651
1451.612903 44412.69324
1612.903226 44645.99916
1774.193548 44792.48857
1935.483871 44881.70761
2096.774194 44934.42233
2258.064516 44964.64324
2419.354839 44981.45777
2580.645161 44990.53981
2741.935484 44995.30345
2903.225806 44997.73063
3064.516129 44998.93242
3225.806452 44999.5109
3387.096774 44999.78171
3548.387097 44999.90506
3709.677419 44999.95975
3870.967742 44999.98336
4032.258065 44999.99329
4193.548387 44999.99736
4354.83871 44999.99898
4516.129032 44999.99962
4677.419355 44999.99986
4838.709677 44999.99995
      5000 44999.99998
