    x (m) Pressao (kPa)
         0 37534.65129
161.2903226 40820.74551
322.5806452 42865.08189
483.8709677 44006.23278
645.1612903 44578.16776
806.4516129 44836.34076
967.7419355 44941.77704
1129.032258 44980.93531
1290.322581 44994.2315
1451.612903 44998.38076
1612.903226 44999.57671
1774.193548 44999.89657
1935.483871 44999.9763
2096.774194 44999.99489
2258.064516 44999.99896
2419.354839 44999.9998
2580.645161 44999.99996
2741.935484 44999.99999
2903.225806      45000
3064.516129      45000
3225.806452      45000
3387.096774      45000
3548.387097      45000
3709.677419      45000
3870.967742      45000
4032.258065      45000
4193.548387      45000
4354.83871      45000
4516.129032      45000
4677.419355      45000
4838.709677      45000
      5000      45000
